	15° s filtrar		
Frequency (Hz)	Level (dB)

11.139739	41.38
11.301211	41.39
11.465025	41.40
11.631213	41.42
11.799810	41.44
11.970850	41.47
12.144370	41.50
12.320405	41.53
12.498992	41.57
12.680168	41.61
12.863969	41.65
13.050435	41.69
13.239604	41.73
13.431515	41.78
13.626208	41.82
13.823722	41.85
14.024100	41.89
14.227382	41.92
14.433611	41.94
14.642829	41.96
14.855080	41.97
15.070408	41.96
15.288856	41.96
15.510471	41.93
15.735299	41.90
15.963385	41.86
16.194778	41.81
16.429525	41.74
16.667674	41.66
16.909275	41.57
17.154379	41.48
17.403035	41.36
17.655296	41.24
17.911213	41.12
18.170840	40.97
18.434230	40.82
18.701438	40.67
18.972519	40.50
19.247530	40.32
19.526527	40.14
19.809568	39.96
20.096712	39.78
20.388018	39.61
20.683546	39.44
20.983358	39.29
21.287517	39.16
21.596084	39.04
21.909123	38.94
22.226701	38.86
22.548881	38.80
22.875732	38.74
23.207320	38.70
23.543715	38.67
23.884986	38.64
24.231204	38.60
24.582441	38.57
24.938768	38.53
25.300261	38.47
25.666993	38.40
26.039042	38.30
26.416483	38.15
26.799396	37.98
27.187858	37.74
27.581952	37.47
27.981758	37.13
28.387360	36.74
28.798840	36.31
29.216286	35.82
29.639782	35.29
30.069416	34.74
30.505279	34.14
30.947459	33.53
31.396049	32.90
31.851141	32.28
32.312830	31.70
32.781212	31.20
33.256382	30.84
33.738440	30.63
34.227486	30.58
34.723620	30.67
35.226947	30.87
35.737568	31.14
36.255592	31.45
36.781124	31.77
37.314274	32.07
37.855152	32.34
38.403871	32.56
38.960543	32.71
39.525284	32.81
40.098211	32.83
40.679443	32.79
41.269100	32.67
41.867304	32.49
42.474180	32.29
43.089852	32.13
43.714448	32.13
44.348098	32.35
44.990933	32.76
45.643086	33.27
46.304692	33.77
46.975888	34.17
47.656813	34.45
48.347609	34.58
49.048418	34.56
49.759385	34.35
50.480657	33.95
51.212385	33.37
51.954719	32.66
52.707813	32.01
53.471824	32.04
54.246909	33.63
55.033230	36.37
55.830948	39.27
56.640229	41.92
57.461241	44.34
58.294153	46.51
59.139139	48.46
59.996373	50.11
60.866033	51.45
61.748299	52.50
62.643354	53.33
63.551382	54.02
64.472573	54.62
65.407116	55.18
66.355206	55.74
67.317038	56.31
68.292813	56.88
69.282731	57.33
70.286999	57.53
71.305824	57.36
72.339416	56.87
73.387991	56.24
74.451765	55.67
75.530959	55.27
76.625796	55.05
77.736503	55.03
78.863310	55.15
80.006450	55.35
81.166160	55.59
82.342680	55.84
83.536255	56.09
84.747130	56.36
85.975557	56.66
87.221791	57.03
88.486089	57.48
89.768713	57.95
91.069929	58.30
92.390007	58.50
93.729219	58.73
95.087844	59.13
96.466162	59.69
97.864459	60.27
99.283025	60.76
100.722153	61.08
102.182141	61.24
103.663293	61.31
105.165914	61.42
106.690316	61.72
108.236814	62.32
109.805729	63.11
111.397386	63.79
113.012114	64.11
114.650248	64.06
116.312128	63.69
117.998096	63.23
119.708503	62.90
121.443703	62.83
123.204054	63.03
124.989923	63.38
126.801678	63.60
128.639694	63.50
130.504354	62.99
132.396041	62.47
134.315150	62.35
136.262076	62.26
138.237223	62.11
140.241000	61.97
142.273823	61.74
144.336111	61.44
146.428293	61.26
148.550802	61.37
150.704076	61.56
152.888563	61.31
155.104715	60.25
157.352990	58.65
159.633854	57.23
161.947780	56.68
164.295247	56.80
166.676741	57.24
169.092755	57.84
171.543790	58.37
174.030353	58.72
176.552959	59.18
179.112131	59.80
181.708398	59.91
184.342299	59.02
187.014379	57.10
189.725192	54.16
192.475298	52.76
195.265267	54.12
198.095678	55.38
200.967116	56.20
203.880176	56.82
206.835462	57.39
209.833585	57.59
212.875166	57.28
215.960836	56.25
219.091233	55.05
222.267006	55.06
225.488813	55.97
228.757320	56.85
232.073205	56.86
235.437154	56.19
238.849865	54.88
242.312043	53.63
245.824407	52.48
249.387683	52.19
253.002609	52.83
256.669935	53.17
260.390419	52.98
264.164832	52.57
267.993956	52.80
271.878584	52.56
275.819521	51.28
279.817582	49.45
283.873596	47.52
287.988403	48.03
292.162855	49.07
296.397817	51.46
300.694165	53.69
305.052789	54.70
309.474593	54.73
313.960491	54.58
318.511414	55.57
323.128303	55.56
327.812115	55.03
332.563820	55.51
337.384402	54.93
342.274859	53.84
347.236204	52.98
352.269465	54.13
357.375684	54.83
362.555919	55.03
367.811243	55.02
373.142743	54.38
378.551525	54.21
384.038708	53.63
389.605429	53.23
395.252841	52.57
400.982113	49.97
406.794432	48.44
412.691002	48.90
418.673044	48.61
424.741797	51.18
430.898518	53.77
437.144481	54.14
443.480981	52.13
449.909331	50.59
456.430860	51.71
463.046920	52.44
469.758882	51.78
476.568134	49.46
483.476089	49.08
490.484175	50.62
497.593845	51.31
504.806572	51.01
512.123848	51.57
519.547190	51.45
527.078134	51.69
534.718242	49.70
542.469094	51.44
550.332296	53.21
558.309477	52.64
566.402289	52.98
574.612408	53.31
582.941535	51.69
591.391394	51.25
599.963735	49.59
608.660334	49.76
617.482992	49.78
626.433537	48.96
635.513821	49.42
644.725726	49.52
654.071160	51.46
663.552057	53.80
673.170382	57.48
682.928127	59.43
692.827312	58.92
702.869989	57.47
713.058235	56.58
723.394163	55.89
733.879912	55.68
744.517654	55.22
755.309592	54.12
766.257962	53.26
777.365030	52.65
788.633098	52.01
800.064499	53.09
811.661600	52.81
823.426804	53.20
835.362547	51.43
847.471301	53.59
859.755574	53.04
872.217910	49.80
884.860890	49.13
897.687132	46.85
910.699294	47.43
923.900070	48.68
937.292194	49.95
950.878439	49.18
964.661620	48.17
978.644591	49.05
992.830248	48.20
1007.221529	46.18
1021.821414	43.69
1036.632928	45.98
1051.659138	47.43
1066.903156	47.58
1082.368140	52.12
1098.057291	49.50
1113.973860	46.05
1130.121143	46.72
1146.502484	46.37
1163.121276	46.37
1179.980961	49.93
1197.085030	55.59
1214.437027	58.52
1232.040544	56.65
1249.899229	54.25
1268.016778	54.34
1286.396945	54.24
1305.043536	54.52
1323.960414	54.97
1343.151496	54.57
1362.620756	53.70
1382.372227	51.76
1402.410000	50.93
1422.738225	50.81
1443.361112	51.69
1464.282931	50.64
1485.508017	48.79
1507.040765	48.62
1528.885634	49.95
1551.047150	51.38
1573.529901	50.99
1596.338544	52.41
1619.477804	50.54
1642.952471	48.88
1666.767409	49.58
1690.927550	50.25
1715.437896	50.24
1740.303526	50.07
1765.529587	52.80
1791.121306	55.20
1817.083982	50.85
1843.422992	49.34
1870.143792	50.82
1897.251916	49.94
1924.752977	49.88
1952.652672	50.63
1980.956779	49.59
2009.671159	49.45
2038.801761	49.18
2068.354617	51.07
2098.335847	49.44
2128.751662	48.46
2159.608360	47.56
2190.912333	48.79
2222.670063	48.35
2254.888128	47.23
2287.573200	44.62
2320.732050	47.62
2354.371544	47.78
2388.498649	47.18
2423.120434	46.24
2458.244069	46.77
2493.876828	47.71
2530.026092	46.90
2566.699346	45.83
2603.904187	45.84
2641.648320	46.40
2679.939562	45.27
2718.785844	46.08
2758.195211	45.12
2798.175824	46.51
2838.735965	44.01
2879.884033	46.91
2921.628551	46.43
2963.978165	45.64
3006.941645	45.30
3050.527890	45.65
3094.745927	45.77
3139.604913	45.94
3185.114139	45.11
3231.283032	45.23
3278.121151	44.16
3325.638200	45.20
3373.844017	44.41
3422.748588	45.18
3472.362041	44.17
3522.694651	45.21
3573.756843	44.62
3625.559192	43.94
3678.112427	45.68
3731.427432	44.85
3785.515249	44.42
3840.387080	44.34
3896.054290	43.43
3952.528408	44.42
4009.821129	43.89
4067.944321	43.76
4126.910020	44.41
4186.730440	43.93
4247.417969	44.63
4308.985176	43.85
4371.444813	44.43
4434.809815	43.65
4499.093306	43.97
4564.308599	43.31
4630.469202	43.31
4697.588817	43.58
4765.681344	42.60
4834.760887	41.72
4904.841752	41.44
4975.938453	40.87
5048.065717	40.92
5121.238480	41.08
5195.471897	40.42
5270.781343	41.35
5347.182415	41.06
5424.690937	41.13
5503.322961	40.62
5583.094772	40.53
5664.022893	39.85
5746.124083	39.77
5829.415347	38.98
5913.913936	37.60
5999.637349	37.44
6086.603340	36.73
6174.829922	36.88
6264.335367	33.16
6355.138211	34.85
6447.257262	35.54
6540.711597	37.91
6635.520573	38.17
6731.703824	39.17
6829.281272	38.41
6928.273125	38.19
7028.699885	37.30
7130.582353	36.64
7233.941627	34.76
7338.799116	34.84
7445.176537	33.53
7553.095920	32.15
7662.579617	32.68
7773.650302	34.76
7886.330981	34.65
8000.644989	35.30
8116.616003	36.02
8234.268041	35.39
8353.625470	34.42
8474.713009	31.38
8597.555737	28.44
8722.179097	24.57
8848.608897	22.07
8976.871324	20.01
9106.992942	24.76
9239.000700	27.01
9372.921937	27.69
9508.784391	29.36
9646.616199	29.41
9786.445908	29.37
9928.302478	29.23
10072.215288	26.49
10218.214144	26.05
10366.329284	24.21
10516.591384	23.18
10669.031565	23.53
10823.681397	22.41
10980.572911	20.88
11139.738600	20.33
11301.211429	19.73
11465.024840	20.11
11631.212760	20.11
11799.809609	17.65
11970.850305	18.53
12144.370271	20.05
12320.405445	22.65
12498.992285	24.13
12680.167779	23.62
12863.969449	22.43
13050.435363	21.43
13239.604139	21.69
13431.514956	22.68
13626.207560	22.32
13823.722274	20.93
14024.100004	13.41
14227.382252	11.97
14433.611118	13.71
14642.829314	14.85
14855.080172	16.19
15070.407650	17.75
15288.856344	17.02
15510.471498	14.66
15735.299010	19.08
15963.385443	19.62
16194.778036	18.07
16429.524714	16.78
16667.674093	17.27
16909.275497	18.26
17154.378963	18.16
17403.035256	16.87
17655.295873	16.64
17911.213060	18.48
18170.839820	19.35
18434.229924	17.91
18701.437922	15.48
18972.519156	16.98
19247.529769	17.88
19526.526718	18.18
19809.567786	18.84
20096.711592	11.89
20388.017608	5.03
20683.546166	4.30
20983.358471	3.23
21287.516618	3.08
21596.083601	3.47
21909.123326	3.74
22226.700627	3.97