	fs a 10 fs_2		
Frequency (Hz)	Level (dB)

11.139739	31.26
11.301211	31.48
11.465025	31.71
11.631213	31.95
11.799810	32.20
11.970850	32.45
12.144370	32.69
12.320405	32.94
12.498992	33.19
12.680168	33.44
12.863969	33.70
13.050435	33.97
13.239604	34.22
13.431515	34.47
13.626208	34.72
13.823722	35.00
14.024100	35.24
14.227382	35.49
14.433611	35.75
14.642829	36.00
14.855080	36.23
15.070408	36.49
15.288856	36.71
15.510471	36.95
15.735299	37.16
15.963385	37.36
16.194778	37.54
16.429525	37.70
16.667674	37.84
16.909275	37.95
17.154379	38.02
17.403035	38.06
17.655296	38.06
17.911213	38.03
18.170840	37.93
18.434230	37.79
18.701438	37.61
18.972519	37.38
19.247530	37.08
19.526527	36.76
19.809568	36.39
20.096712	36.00
20.388018	35.60
20.683546	35.19
20.983358	34.81
21.287517	34.47
21.596084	34.19
21.909123	33.97
22.226701	33.81
22.548881	33.71
22.875732	33.65
23.207320	33.61
23.543715	33.58
23.884986	33.55
24.231204	33.50
24.582441	33.44
24.938768	33.37
25.300261	33.25
25.666993	33.12
26.039042	32.94
26.416483	32.71
26.799396	32.45
27.187858	32.10
27.581952	31.70
27.981758	31.21
28.387360	30.66
28.798840	30.07
29.216286	29.42
29.639782	28.76
30.069416	28.14
30.505279	27.56
30.947459	27.05
31.396049	26.61
31.851141	26.23
32.312830	25.88
32.781212	25.54
33.256382	25.20
33.738440	24.84
34.227486	24.47
34.723620	24.08
35.226947	23.66
35.737568	23.22
36.255592	22.74
36.781124	22.21
37.314274	21.65
37.855152	21.06
38.403871	20.46
38.960543	19.86
39.525284	19.33
40.098211	18.87
40.679443	18.51
41.269100	18.37
41.867304	18.74
42.474180	19.99
43.089852	22.03
43.714448	24.36
44.348098	26.55
44.990933	28.42
45.643086	29.92
46.304692	31.05
46.975888	31.86
47.656813	32.39
48.347609	32.68
49.048418	32.72
49.759385	32.49
50.480657	31.92
51.212385	30.96
51.954719	29.56
52.707813	27.73
53.471824	25.70
54.246909	23.96
55.033230	23.05
55.830948	22.91
56.640229	23.17
57.461241	23.58
58.294153	24.03
59.139139	24.47
59.996373	24.91
60.866033	25.42
61.748299	26.08
62.643354	26.88
63.551382	27.74
64.472573	28.60
65.407116	29.43
66.355206	30.15
67.317038	30.75
68.292813	31.23
69.282731	31.60
70.286999	31.90
71.305824	32.16
72.339416	32.34
73.387991	32.36
74.451765	32.26
75.530959	31.98
76.625796	31.66
77.736503	31.66
78.863310	31.44
80.006450	33.36
81.166160	38.65
82.342680	43.65
83.536255	48.60
84.747130	53.26
85.975557	56.95
87.221791	59.58
88.486089	61.40
89.768713	62.67
91.069929	63.51
92.390007	64.04
93.729219	64.43
95.087844	64.80
96.466162	65.24
97.864459	65.77
99.283025	66.31
100.722153	66.79
102.182141	67.17
103.663293	67.44
105.165914	67.68
106.690316	67.99
108.236814	68.35
109.805729	68.72
111.397386	69.05
113.012114	69.32
114.650248	69.53
116.312128	69.65
117.998096	69.56
119.708503	69.30
121.443703	69.06
123.204054	68.87
124.989923	68.64
126.801678	68.41
128.639694	68.17
130.504354	67.81
132.396041	67.57
134.315150	67.64
136.262076	67.70
138.237223	67.81
140.241000	68.02
142.273823	67.94
144.336111	67.42
146.428293	66.56
148.550802	65.53
150.704076	64.57
152.888563	63.84
155.104715	63.27
157.352990	62.43
159.633854	61.52
161.947780	61.07
164.295247	61.16
166.676741	61.49
169.092755	62.02
171.543790	62.80
174.030353	63.59
176.552959	64.23
179.112131	64.58
181.708398	64.36
184.342299	63.56
187.014379	62.15
189.725192	60.01
192.475298	57.43
195.265267	57.04
198.095678	59.21
200.967116	60.98
203.880176	61.83
206.835462	62.10
209.833585	62.12
212.875166	61.74
215.960836	61.53
219.091233	61.45
222.267006	61.71
225.488813	62.57
228.757320	62.83
232.073205	61.95
235.437154	61.55
238.849865	61.01
242.312043	59.99
245.824407	58.98
249.387683	57.70
253.002609	57.25
256.669935	58.49
260.390419	59.96
264.164832	60.76
267.993956	60.78
271.878584	60.02
275.819521	59.30
279.817582	58.30
283.873596	57.27
287.988403	57.00
292.162855	58.19
296.397817	59.08
300.694165	59.56
305.052789	59.71
309.474593	59.82
313.960491	59.79
318.511414	60.09
323.128303	59.53
327.812115	58.41
332.563820	57.98
337.384402	57.92
342.274859	58.24
347.236204	59.15
352.269465	59.50
357.375684	60.17
362.555919	60.77
367.811243	60.05
373.142743	59.83
378.551525	59.31
384.038708	59.20
389.605429	59.00
395.252841	58.41
400.982113	57.51
406.794432	56.87
412.691002	56.06
418.673044	55.16
424.741797	56.55
430.898518	58.52
437.144481	58.03
443.480981	57.71
449.909331	57.89
456.430860	57.66
463.046920	56.99
469.758882	56.32
476.568134	54.93
483.476089	57.30
490.484175	58.73
497.593845	57.64
504.806572	57.10
512.123848	57.74
519.547190	57.43
527.078134	57.40
534.718242	57.49
542.469094	57.99
550.332296	58.97
558.309477	59.23
566.402289	58.71
574.612408	59.12
582.941535	58.69
591.391394	57.40
599.963735	55.24
608.660334	56.53
617.482992	55.70
626.433537	54.44
635.513821	53.08
644.725726	55.94
654.071160	59.22
663.552057	60.71
673.170382	63.60
682.928127	64.52
692.827312	65.51
702.869989	64.00
713.058235	62.39
723.394163	61.98
733.879912	62.40
744.517654	61.35
755.309592	60.52
766.257962	61.72
777.365030	60.01
788.633098	58.83
800.064499	58.73
811.661600	57.84
823.426804	58.51
835.362547	59.12
847.471301	60.01
859.755574	57.99
872.217910	54.66
884.860890	41.16
897.687132	26.37
910.699294	27.94
923.900070	27.23
937.292194	25.62
950.878439	26.13
964.661620	25.91
978.644591	26.62
992.830248	25.86
1007.221529	24.11
1021.821414	23.27
1036.632928	23.82
1051.659138	22.76
1066.903156	22.48
1082.368140	25.39
1098.057291	21.88
1113.973860	19.45
1130.121143	21.23
1146.502484	19.98
1163.121276	18.60
1179.980961	23.30
1197.085030	30.39
1214.437027	33.48
1232.040544	29.97
1249.899229	25.36
1268.016778	25.32
1286.396945	25.29
1305.043536	25.60
1323.960414	27.60
1343.151496	26.58
1362.620756	24.99
1382.372227	23.65
1402.410000	21.21
1422.738225	23.24
1443.361112	22.79
1464.282931	21.12
1485.508017	19.58
1507.040765	22.38
1528.885634	24.70
1551.047150	25.09
1573.529901	23.61
1596.338544	23.29
1619.477804	22.26
1642.952471	20.74
1666.767409	22.14
1690.927550	22.04
1715.437896	21.58
1740.303526	22.06
1765.529587	21.67
1791.121306	21.57
1817.083982	19.81
1843.422992	19.63
1870.143792	19.54
1897.251916	19.07
1924.752977	18.57
1952.652672	19.55
1980.956779	17.83
2009.671159	16.77
2038.801761	16.64
2068.354617	17.49
2098.335847	15.72
2128.751662	14.28
2159.608360	16.12
2190.912333	14.29
2222.670063	13.82
2254.888128	12.76
2287.573200	12.02
2320.732050	13.44
2354.371544	13.39
2388.498649	12.01
2423.120434	11.91
2458.244069	10.64
2493.876828	10.93
2530.026092	11.38
2566.699346	10.88
2603.904187	10.16
2641.648320	10.25
2679.939562	9.83
2718.785844	10.10
2758.195211	10.33
2798.175824	9.28
2838.735965	8.62
2879.884033	9.18
2921.628551	9.39
2963.978165	8.48
3006.941645	8.19
3050.527890	8.50
3094.745927	9.40
3139.604913	8.94
3185.114139	7.99
3231.283032	9.06
3278.121151	9.20
3325.638200	8.77
3373.844017	9.22
3422.748588	8.09
3472.362041	9.67
3522.694651	7.45
3573.756843	8.23
3625.559192	8.88
3678.112427	9.36
3731.427432	8.18
3785.515249	7.42
3840.387080	8.40
3896.054290	7.63
3952.528408	7.41
4009.821129	7.08
4067.944321	7.97
4126.910020	7.82
4186.730440	8.31
4247.417969	7.20
4308.985176	7.06
4371.444813	7.70
4434.809815	7.60
4499.093306	7.23
4564.308599	6.73
4630.469202	6.96
4697.588817	6.99
4765.681344	6.63
4834.760887	7.27
4904.841752	6.93
4975.938453	6.49
5048.065717	5.91
5121.238480	6.23
5195.471897	5.34
5270.781343	5.50
5347.182415	6.06
5424.690937	6.70
5503.322961	7.45
5583.094772	6.97
5664.022893	7.03
5746.124083	6.58
5829.415347	5.85
5913.913936	5.29
5999.637349	4.66
6086.603340	4.63
6174.829922	3.59
6264.335367	3.33
6355.138211	3.72
6447.257262	3.26
6540.711597	4.04
6635.520573	2.89
6731.703824	5.61
6829.281272	3.81
6928.273125	3.66
7028.699885	4.45
7130.582353	3.27
7233.941627	3.11
7338.799116	3.00
7445.176537	3.11
7553.095920	4.23
7662.579617	3.63
7773.650302	4.75
7886.330981	3.19
8000.644989	4.41
8116.616003	3.74
8234.268041	4.47
8353.625470	3.30
8474.713009	3.78
8597.555737	2.90
8722.179097	2.32
8848.608897	2.67
8976.871324	1.92
9106.992942	2.56
9239.000700	2.68
9372.921937	1.89
9508.784391	2.41
9646.616199	2.51
9786.445908	2.53
9928.302478	2.96
10072.215288	2.30
10218.214144	2.17
10366.329284	2.02
10516.591384	1.84
10669.031565	1.60
10823.681397	1.56
10980.572911	1.52
11139.738600	1.57
11301.211429	1.54
11465.024840	1.28
11631.212760	0.90
11799.809609	0.86
11970.850305	0.63
12144.370271	0.77
12320.405445	0.71
12498.992285	0.86
12680.167779	0.69
12863.969449	0.61
13050.435363	0.61
13239.604139	0.47
13431.514956	0.45
13626.207560	0.33
13823.722274	0.12
14024.100004	0.31
14227.382252	0.38
14433.611118	0.27
14642.829314	0.06
14855.080172	0.09
15070.407650	-0.21
15288.856344	-0.43
15510.471498	-0.66
15735.299010	-0.61
15963.385443	-0.98
16194.778036	-0.90
16429.524714	-1.13
16667.674093	-1.14
16909.275497	-1.26
17154.378963	-1.27
17403.035256	-1.50
17655.295873	-1.63
17911.213060	-1.74
18170.839820	-1.57
18434.229924	-1.16
18701.437922	0.42
18972.519156	1.08
19247.529769	-2.18
19526.526718	-2.33
19809.567786	-2.40
20096.711592	-2.30
20388.017608	-1.95
20683.546166	-2.24
20983.358471	-2.19
21287.516618	-1.21
21596.083601	-1.19
21909.123326	-0.23
22226.700627	-1.57